# Energy profile
1         0.00000   0.00000   -589.24457          0.00000             
2         0.11822   0.05350   -589.24308          0.93535             
3         0.27287   0.12348   -589.24207          1.57118             
4         0.43074   0.19492   -589.24075          2.39647             
5         0.55337   0.25041   -589.23967          3.07748             
6         0.65519   0.29649   -589.23669          4.94996             
7         0.76513   0.34623   -589.23293          7.30662             
8         0.93159   0.42156   -589.23291          7.31668             
9         1.09607   0.49599   -589.22505          12.24812            
10        1.20334   0.54453   -589.22612          11.58094            
11        1.32802   0.60096   -589.22703          11.01067            
12        1.47357   0.66682   -589.23311          7.19343             
13        1.59951   0.72381   -589.24577          -0.75071            
14        1.72170   0.77910   -589.25982          -9.56967            
15        1.83314   0.82953   -589.27085          -16.48747           
16        1.96068   0.88724   -589.27743          -20.61817           
17        2.08880   0.94522   -589.28377          -24.59595           
18        2.20985   1.00000   -589.28627          -26.16521           
